Vds,Vg=0,Vg=0.5,Vg=1,Vg=1.5,Vg=2,Vg=2.5,Vg=3,Vg=3.5,Vg=4,Vg=4.5,Vg=5,Vg=5.5,Vg=6,Vg=6.5,Vg=7,Vg=7.5,Vg=8
0.0,-5.32131e-05,-4.29711e-05,-7.315200000000001e-05,-0.000104092,-0.00021731999999999999,-0.0005983729999999999,-0.00219659,-0.0102358,-0.021342999999999997,-0.0383407,-0.056062,-0.0822858,-0.108254,-0.129614,-0.15319500000000003,-0.17524199999999998,-0.19934600000000002
0.1,0.00020295,0.00127643,0.014727200000000001,0.0273541,0.0372486,0.0452049,0.0503979,0.050140199999999996,0.0446333,0.032339299999999994,0.0142264,-0.00738781,-0.0310308,-0.0512077,-0.0704376,-0.0954681,-0.116791
0.2,0.000255737,0.00149593,0.0260679,0.052001900000000004,0.0724095,0.089061,0.102092,0.10936,0.10756199999999999,0.09772,0.0842211,0.0664042,0.0428536,0.0277657,0.0115217,-0.0140219,-0.028372099999999997
0.30000000000000004,0.000274518,0.0015305899999999999,0.0341053,0.0738875,0.10529000000000001,0.130977,0.151636,0.166401,0.169681,0.165102,0.152832,0.140734,0.119245,0.10427,0.0897006,0.07068340000000001,0.0528994
0.4,0.00031189399999999995,0.00155069,0.039026000000000005,0.0930087,0.135981,0.171037,0.199605,0.222072,0.233791,0.232555,0.225335,0.213136,0.19703,0.17960700000000002,0.168238,0.146097,0.13266299999999998
0.5,0.00044618100000000003,0.0015706700000000001,0.0413893,0.109278,0.16435000000000002,0.209211,0.245913,0.275881,0.294626,0.30008999999999997,0.29746999999999996,0.286292,0.273519,0.25459000000000004,0.252587,0.226758,0.22184900000000002
0.6000000000000001,0.000785674,0.0015882300000000002,0.0422784,0.122606,0.19034,0.245396,0.29059700000000005,0.32814200000000004,0.354958,0.366845,0.3663,0.361815,0.348711,0.33197800000000005,0.331226,0.305612,0.305573
0.7000000000000001,0.0013809500000000001,0.00160393,0.0425738,0.13297299999999998,0.21391100000000002,0.27963,0.33362600000000003,0.37885399999999997,0.413591,0.43271,0.435444,0.429731,0.425729,0.410696,0.414495,0.38875200000000004,0.385707
0.8,0.0022979,0.0016262899999999999,0.0427362,0.140459,0.234928,0.311776,0.37489,0.428054,0.471079,0.496707,0.505924,0.506782,0.5048910000000001,0.487769,0.4922079999999999,0.478203,0.464806
0.9,0.00355189,0.00168724,0.042895899999999994,0.14517999999999998,0.253391,0.341809,0.414453,0.47583400000000003,0.526758,0.5603290000000001,0.575249,0.576403,0.5828129999999999,0.567211,0.56371,0.558884,0.5481280000000001
1.0,0.00512233,0.0018876399999999999,0.043064700000000004,0.147815,0.269171,0.36971699999999996,0.452237,0.521958,0.580841,0.622491,0.6434639999999999,0.6531049999999999,0.658286,0.6472,0.64488,0.643356,0.6279779999999999
1.1,0.0069888699999999995,0.00234469,0.0431688,0.149089,0.282292,0.39543199999999995,0.488221,0.5665870000000001,0.632987,0.683253,0.711168,0.72788,0.7332970000000001,0.7195,0.725865,0.727167,0.7150299999999999
1.2000000000000002,0.0091137,0.0031707899999999997,0.043297999999999996,0.149789,0.292609,0.418863,0.52227,0.6097290000000001,0.683875,0.743159,0.779779,0.7984519999999999,0.806199,0.798207,0.810697,0.8045910000000001,0.8000849999999999
1.3,0.011393700000000001,0.00446796,0.0434485,0.15027700000000002,0.300353,0.439916,0.554433,0.651235,0.733679,0.801374,0.847194,0.8679910000000001,0.8823070000000001,0.879832,0.8934770000000001,0.8947809999999999,0.880193
1.4000000000000001,0.0139246,0.0063133500000000006,0.0436624,0.15080200000000002,0.305676,0.458418,0.5846480000000001,0.691071,0.782104,0.858371,0.912818,0.942455,0.959103,0.964818,0.973414,0.9808720000000001,0.9673120000000001
1.5,0.016600300000000002,0.00871448,0.044221899999999995,0.151197,0.308911,0.47457499999999997,0.612734,0.729197,0.829094,0.9138250000000001,0.9774219999999999,1.01604,1.04013,1.0472299999999999,1.05503,1.06545,1.05561
1.6,0.019478,0.0117868,0.045424099999999995,0.151542,0.31071400000000005,0.488141,0.638785,0.765529,0.874532,0.9680259999999999,1.04182,1.08755,1.11594,1.12923,1.1341599999999998,1.14665,1.14384
1.7000000000000002,0.0225109,0.015466899999999999,0.047588,0.151929,0.311991,0.49916499999999997,0.662514,0.8001199999999999,0.9182319999999999,1.02187,1.1035400000000002,1.15748,1.19486,1.21078,1.2235200000000002,1.2301499999999999,1.23248
1.8,0.0257794,0.0198708,0.0509282,0.15232,0.31293,0.507548,0.684105,0.832721,0.9604130000000001,1.07246,1.16403,1.2267599999999999,1.27026,1.28673,1.30736,1.31868,1.31589
1.9000000000000001,0.0294035,0.0250695,0.0554655,0.152808,0.313801,0.51369,0.703282,0.8634310000000001,1.0024899999999999,1.1213,1.22259,1.29484,1.34469,1.36513,1.38954,1.4025299999999998,1.4012499999999999
2.0,0.0335379,0.0310398,0.061324100000000006,0.153792,0.314573,0.51779,0.720036,0.892119,1.0412299999999999,1.16946,1.2795599999999998,1.36179,1.41862,1.4451500000000002,1.47397,1.48913,1.49401
2.1,0.0383272,0.037805899999999996,0.0682599,0.155778,0.315415,0.520374,0.7342730000000001,0.918451,1.07799,1.21484,1.3343800000000001,1.42655,1.49271,1.52292,1.55134,1.57168,1.58192
2.2,0.0440614,0.045464199999999996,0.0765245,0.15922199999999997,0.316096,0.522233,0.746067,0.9429879999999999,1.11327,1.25945,1.3878300000000001,1.49009,1.56613,1.60114,1.63336,1.6606800000000002,1.6731
2.3000000000000003,0.050797999999999996,0.0541027,0.08586289999999999,0.164342,0.316759,0.523829,0.755384,0.965071,1.14645,1.3023200000000001,1.43951,1.5519500000000002,1.63785,1.67762,1.7229999999999999,1.74457,1.76337
2.4000000000000004,0.0584181,0.0638381,0.0963348,0.171309,0.317598,0.52513,0.7624949999999999,0.98507,1.17784,1.34373,1.4897,1.61227,1.7078,1.75473,1.8062200000000002,1.8303,1.8545
2.5,0.0674471,0.07443899999999999,0.107864,0.180082,0.319054,0.526345,0.767627,1.0041200000000001,1.20708,1.3828099999999999,1.53806,1.66986,1.77618,1.83162,1.88941,1.9192,1.9400000000000002
2.6,0.0776312,0.0864577,0.120476,0.190666,0.321912,0.527517,0.771061,1.01935,1.23424,1.42022,1.58493,1.72628,1.84263,1.9086999999999998,1.9726299999999999,2.00257,2.02983
2.7,0.0891529,0.0993548,0.134275,0.202822,0.326418,0.5285930000000001,0.7733,1.03195,1.25929,1.45626,1.6299000000000001,1.78047,1.9074300000000002,1.98366,2.05288,2.08756,2.12065
2.8000000000000003,0.101871,0.11286399999999999,0.14923399999999998,0.21642499999999998,0.333113,0.529648,0.7758269999999999,1.04222,1.2821,1.48981,1.67326,1.83301,1.97028,2.0581300000000002,2.13537,2.1773000000000002,2.20274
2.9000000000000004,0.116252,0.128113,0.165098,0.231572,0.342254,0.530763,0.777733,1.0500500000000001,1.30273,1.52184,1.7149,1.88387,2.03058,2.1312100000000003,2.21585,2.26546,2.29544
3.0,0.13155,0.144563,0.18222,0.247618,0.35345,0.532828,0.779208,1.05606,1.32095,1.5516,1.75452,1.9328100000000001,2.0887599999999997,2.20295,2.29598,2.34821,2.3808000000000002
3.1,0.14842,0.161907,0.200862,0.265367,0.36689900000000003,0.536393,0.780855,1.0604500000000001,1.3368099999999998,1.5793000000000001,1.79261,1.9800600000000002,2.14515,2.27197,2.37378,2.43323,2.4701
3.2,0.166004,0.18066100000000002,0.220258,0.284676,0.38225899999999996,0.541754,0.782484,1.0637400000000001,1.35027,1.6047500000000001,1.82856,2.0255799999999997,2.1993400000000003,2.33872,2.45022,2.51648,2.56016
3.3000000000000003,0.185301,0.200509,0.241076,0.304973,0.399463,0.54985,0.78372,1.06638,1.36141,1.6279700000000001,1.8628799999999999,2.06937,2.2520499999999997,2.40286,2.5241399999999996,2.5972399999999998,2.64805
3.4000000000000004,0.20613599999999999,0.221613,0.26318400000000003,0.32659900000000003,0.418246,0.5605140000000001,0.785568,1.0688600000000001,1.37002,1.64918,1.89499,2.1112499999999996,2.3029800000000002,2.46378,2.59548,2.67673,2.73652
3.5,0.227722,0.243881,0.285908,0.349354,0.438611,0.5743159999999999,0.787989,1.07107,1.37686,1.66797,1.92516,2.1514300000000004,2.35218,2.52288,2.66565,2.7561500000000003,2.81961
3.6,0.25135199999999996,0.266675,0.309236,0.373364,0.460374,0.590224,0.792264,1.07309,1.38184,1.68445,1.95324,2.18958,2.39938,2.58006,2.73318,2.83612,2.9055299999999997
3.7,0.27582399999999996,0.29196700000000003,0.3345,0.398095,0.484039,0.6083850000000001,0.79875,1.0749799999999998,1.3860000000000001,1.69863,1.9792199999999998,2.22608,2.44515,2.63519,2.79843,2.9138100000000002,2.99221
3.8000000000000003,0.301339,0.31817599999999996,0.361423,0.424573,0.508668,0.628603,0.808024,1.07687,1.38937,1.71025,2.0028699999999997,2.26044,2.48889,2.68849,2.86089,2.98785,3.0735300000000003
3.9000000000000004,0.328324,0.344784,0.388613,0.45232300000000003,0.5347839999999999,0.6508189999999999,0.820542,1.0787399999999998,1.3922800000000002,1.71952,2.02446,2.2929500000000003,2.53096,2.73954,2.92135,3.0610500000000003,3.15423
4.0,0.35761400000000004,0.372608,0.41745,0.481314,0.5625600000000001,0.67452,0.837191,1.08157,1.39491,1.72715,2.0436199999999998,2.32328,2.57104,2.78892,2.97956,3.1305199999999997,3.2326099999999998
4.1000000000000005,0.38786400000000004,0.40268,0.447383,0.51169,0.591181,0.700004,0.854495,1.08631,1.3973099999999998,1.73285,2.0605900000000004,2.35173,2.6094299999999997,2.8365199999999997,3.03617,3.19857,3.3089399999999998
4.2,0.419165,0.433287,0.478157,0.5421039999999999,0.620124,0.7266980000000001,0.8768670000000001,1.09359,1.39968,1.7377200000000002,2.07494,2.37788,2.64595,2.8822,3.09049,3.26309,3.3848
4.3,0.45177500000000004,0.465202,0.510698,0.5739,0.651399,0.755672,0.898275,1.1040100000000002,1.40194,1.74105,2.08723,2.40185,2.6803299999999997,2.92596,3.14291,3.32541,3.45649
4.4,0.484543,0.49819,0.544049,0.607556,0.684193,0.78531,0.923511,1.1179899999999998,1.40429,1.74474,2.09727,2.42354,2.7129,2.96822,3.19398,3.3862699999999997,3.52652
4.5,0.519784,0.532962,0.578775,0.6423289999999999,0.717458,0.8162780000000001,0.951401,1.1352499999999999,1.40785,1.7475699999999998,2.10534,2.44302,2.74336,3.00834,3.24289,3.4452,3.5951899999999997
4.6000000000000005,0.555954,0.5690890000000001,0.61365,0.678252,0.751903,0.849049,0.9792679999999999,1.15563,1.4133399999999998,1.75078,2.1120200000000002,2.46027,2.7719099999999997,3.04676,3.2901100000000003,3.5013900000000002,3.66155
4.7,0.593098,0.604114,0.6508459999999999,0.715395,0.7888660000000001,0.882699,1.0112,1.1785599999999998,1.4214200000000001,1.7532800000000002,2.1172999999999997,2.47517,2.79815,3.08321,3.33543,3.5557499999999997,3.72551
4.800000000000001,0.63252,0.642981,0.6867890000000001,0.753376,0.824751,0.918859,1.04404,1.2041,1.43271,1.75526,2.1218399999999997,2.4877599999999997,2.8221700000000003,3.11784,3.37904,3.6086400000000003,3.78736
4.9,0.6714950000000001,0.683216,0.725366,0.791982,0.863074,0.955564,1.07806,1.23263,1.44777,1.75868,2.1257699999999997,2.49826,2.84399,3.1503400000000004,3.42054,3.65897,3.84689
5.0,0.713933,0.721691,0.7655780000000001,0.832004,0.903605,0.992307,1.11331,1.26198,1.46665,1.76273,2.1293100000000003,2.50685,2.86376,3.18094,3.4607900000000003,3.70654,3.90459
5.1000000000000005,0.754228,0.763599,0.806518,0.8738459999999999,0.9424939999999999,1.03377,1.14925,1.3726,1.48889,1.7651800000000002,2.13232,2.51385,2.88115,3.20918,3.49876,3.7519,3.9602099999999996
5.2,0.797916,0.8063210000000001,0.847591,0.916295,0.9849749999999999,1.07331,1.18771,1.32752,1.51437,1.77847,2.13545,2.51964,2.89612,3.23563,3.53498,3.79594,4.01451
5.300000000000001,0.8435060000000001,0.851806,0.890759,0.9596589999999999,1.02965,1.11453,1.22891,1.36388,1.5420099999999999,1.79176,2.13824,2.5244899999999997,2.90908,3.2596000000000003,3.56938,3.8380300000000003,4.06616
5.4,0.889865,0.894147,0.935599,1.0066000000000002,1.07488,1.1571500000000001,1.26853,1.40113,1.57188,1.8085600000000002,2.14138,2.52882,2.91998,3.28159,3.60161,3.87844,4.11619
5.5,0.935343,0.939547,0.984478,1.05219,1.11865,1.2016399999999998,1.30951,1.4380300000000001,1.60436,1.83146,2.14585,2.5328299999999997,2.92859,3.30116,3.63191,3.91746,4.16415
5.6000000000000005,0.983624,0.986253,1.02946,1.09963,1.16502,1.2469700000000001,1.3519400000000001,1.4776500000000001,1.63799,1.8553300000000001,2.15403,2.53647,2.93606,3.3185599999999997,3.65997,3.9542400000000004,4.21046
5.7,1.03415,1.0362399999999998,1.0762600000000002,1.1461,1.2125199999999998,1.29225,1.39679,1.51904,1.67463,1.8887800000000001,2.1619099999999998,2.53981,2.9424799999999998,3.33387,3.68572,3.9892800000000004,4.25533
5.800000000000001,1.08418,1.0858700000000001,1.12579,1.19532,1.26068,1.33978,1.44349,1.56235,1.7131699999999999,1.9129800000000001,2.17571,2.54295,2.9478400000000002,3.347,3.71011,4.02241,4.29815
5.9,1.13582,1.1368,1.17734,1.2448400000000002,1.3100500000000002,1.39043,1.48919,1.6066500000000001,1.75238,1.97282,2.19257,2.54629,2.95247,3.3580300000000003,3.73188,4.05388,4.33913
6.0,1.18901,1.18734,1.2272800000000001,1.2967899999999999,1.35977,1.43881,1.53792,1.65096,1.79407,1.98458,2.2456,2.55075,2.9565,3.36734,3.7514100000000004,4.08318,4.37783
6.1000000000000005,1.2425400000000002,1.2395500000000002,1.27649,1.3486,1.4097300000000001,1.4885,1.5866,1.69819,1.83717,2.1473500000000003,2.2401600000000004,2.55777,2.96059,3.37494,3.76873,4.11042,4.41504
6.2,1.29555,1.29458,1.33208,1.40043,1.4625599999999999,1.53984,1.63582,1.74658,1.8809099999999999,2.0548699999999998,2.2682800000000003,2.5676,2.96406,3.38143,3.78375,4.13556,4.45026
6.300000000000001,1.3501400000000001,1.34787,1.38767,1.45489,1.51598,1.59337,1.68653,1.79487,1.92694,2.09461,2.30038,2.58139,2.96752,3.38712,3.79692,4.15831,4.48371
6.4,1.40774,1.40424,1.44253,1.50812,1.5717400000000001,1.64772,1.73633,1.84486,1.9721399999999998,2.13616,2.33474,2.59967,2.97106,3.39236,3.8079199999999997,4.17869,4.51515
6.5,1.46571,1.45903,1.49719,1.56452,1.62667,1.70146,1.79016,1.89682,2.02121,2.18534,2.37185,2.62209,2.97582,3.39698,3.81738,4.19734,4.54462
6.6000000000000005,1.52442,1.51754,1.55556,1.6236,1.68171,1.75678,1.84557,1.94907,2.07042,2.23015,2.41001,2.64845,2.98292,3.40107,3.82515,4.21394,4.57195
6.7,1.5834300000000001,1.57785,1.6152,1.67918,1.73967,1.81304,1.9041299999999999,2.00427,2.12203,2.26982,2.4508,2.67849,2.9931900000000002,3.40491,3.83179,4.22873,4.5971400000000004
6.800000000000001,1.6411799999999999,1.63677,1.67343,1.73887,1.7991000000000001,1.86882,1.9592300000000002,2.0584700000000002,2.17377,2.31791,2.4936200000000004,2.71163,3.008,3.40857,3.83773,4.24132,4.61998
6.9,1.70244,1.69818,1.7321000000000002,1.79827,1.85823,1.9292,2.0153,2.1143799999999997,2.23009,2.36781,2.5395399999999997,2.74762,3.02696,3.41235,3.8429800000000003,4.25203,4.64103
7.0,1.76722,1.75772,1.79565,1.8604699999999998,1.9189800000000001,1.9897600000000002,2.0738000000000003,2.1699800000000002,2.28577,2.4195,2.60749,2.78606,3.05039,3.41743,3.8477,4.260940000000001,4.65942
7.1000000000000005,1.8271400000000002,1.82151,1.8587,1.92307,1.97889,2.05089,2.13369,2.22866,2.33844,2.47108,2.65863,2.82586,3.07783,3.42485,3.85207,4.26872,4.6759
7.2,1.89108,1.88804,1.91913,1.9812900000000002,2.0404400000000003,2.11169,2.19691,2.28789,2.39561,2.5235600000000002,2.68045,2.86822,3.109,3.43553,3.85616,4.275659999999999,4.69065
7.300000000000001,1.9555000000000002,1.95286,1.9886000000000001,2.0462100000000003,2.10356,2.17517,2.25551,2.34599,2.45519,2.57987,2.73195,2.91296,3.14328,3.4504,3.8598500000000002,4.28155,4.7034
7.4,2.0199800000000003,2.01788,2.05331,2.11174,2.16928,2.24111,2.3177,2.40911,2.51435,2.63618,2.78324,2.95933,3.1802699999999997,3.47026,3.86396,4.28677,4.714440000000001
7.5,2.0906700000000003,2.08538,2.11583,2.17543,2.22947,2.30569,2.38425,2.47031,2.57567,2.6964200000000003,2.83769,3.00731,3.21962,3.49448,3.86915,4.29095,4.723739999999999
7.6000000000000005,2.1586499999999997,2.15312,2.18158,2.24065,2.29534,2.3696300000000003,2.4468300000000003,2.53295,2.63671,2.75362,2.89201,3.05706,3.2614300000000003,3.52318,3.8767799999999997,4.295120000000001,4.73182
7.7,2.22445,2.22169,2.24911,2.30661,2.3614,2.43444,2.5133400000000004,2.59451,2.69951,2.8124700000000002,2.94663,3.10789,3.30538,3.55489,3.88754,4.29863,4.73907
7.800000000000001,2.29598,2.28879,2.32254,2.3739999999999997,2.42955,2.50401,2.5769,2.65933,2.76049,2.87275,3.0036799999999997,3.16111,3.3511499999999996,3.58993,3.90285,4.302420000000001,4.74477
7.9,2.3654,2.3608499999999997,2.39359,2.44096,2.49907,2.57064,2.6435500000000003,2.72598,2.82097,2.93493,3.06316,3.2159,3.3989,3.62776,3.92301,4.30671,4.75007
8.0,2.4382,2.42785,2.4603099999999998,2.50768,2.56964,2.63835,2.71494,2.79332,2.8861,2.9985,3.1235,3.2711200000000002,3.44909,3.6688,3.9476600000000004,4.3124,4.755269999999999
