Vds,Vg=0,Vg=0.5,Vg=1,Vg=1.5,Vg=2,Vg=2.5,Vg=3,Vg=3.5,Vg=4,Vg=4.5,Vg=5,Vg=5.5,Vg=6,Vg=6.5,Vg=7,Vg=7.5,Vg=8
0.0,-6.38212e-07,-6.38241e-07,-2.79138e-05,-4.49718e-05,-5.7927400000000004e-05,-6.94294e-05,-0.000112322,-0.000125142,-0.000138194,-0.000149827,-0.000156796,-0.000166207,-0.000178147,-0.000185006,-0.00018758299999999998,-0.000195826,-0.000200483
0.1,0.00149779,0.0032229199999999998,0.016019000000000002,0.0271308,0.0362651,0.0441175,0.0510066,0.0572586,0.062969,0.0682415,0.07311440000000001,0.0776447,0.08183309999999999,0.085726,0.089337,0.0926922,0.0957948
0.2,0.00278322,0.004881679999999999,0.0291313,0.0518837,0.0705434,0.08650769999999999,0.10049599999999999,0.11317200000000001,0.12471600000000001,0.13538,0.14522,0.154399,0.162831,0.170701,0.177999,0.184773,0.191054
0.30000000000000004,0.0040311,0.00622245,0.0393087,0.0742357,0.10281399999999999,0.127157,0.14843399999999998,0.167682,0.18518,0.201346,0.21623599999999998,0.23014300000000001,0.242908,0.254822,0.265872,0.276118,0.285634
0.4,0.005288429999999999,0.00755562,0.046579,0.0942022,0.133115,0.166105,0.19492700000000002,0.22090200000000002,0.244493,0.26626299999999997,0.286311,0.304995,0.32221700000000003,0.33824499999999996,0.35312,0.366909,0.379724
0.5,0.00655651,0.00889306,0.0511358,0.111682,0.16135999999999998,0.20331400000000002,0.239905,0.272761,0.302568,0.33005,0.35534299999999996,0.37889199999999995,0.40063499999999996,0.420856,0.439629,0.457028,0.47320100000000004
0.6000000000000001,0.00783729,0.0102437,0.0537488,0.126506,0.187476,0.23876,0.283308,0.32324200000000003,0.359384,0.392696,0.423333,0.451832,0.478186,0.502679,0.525423,0.546505,0.566097
0.7000000000000001,0.00912728,0.0115929,0.0555773,0.138691,0.21140899999999999,0.272338,0.325125,0.372284,0.414928,0.454166,0.49026500000000006,0.5238149999999999,0.554882,0.583719,0.610505,0.635344,0.6584479999999999
0.8,0.0104241,0.0129471,0.0572334,0.14811,0.233073,0.304054,0.365298,0.419912,0.46919900000000003,0.514505,0.556175,0.594867,0.630729,0.6640170000000001,0.69494,0.7236560000000001,0.750328
0.9,0.0117193,0.0142961,0.0588585,0.15478,0.25236,0.333789,0.403792,0.46604300000000004,0.522116,0.573632,0.620971,0.664948,0.7056779999999999,0.743519,0.7786740000000001,0.811336,0.841701
1.0,0.0130177,0.015644199999999997,0.0604407,0.159097,0.269225,0.36155,0.440581,0.5106499999999999,0.573692,0.6315649999999999,0.6847,0.734025,0.7797890000000001,0.8222849999999999,0.861761,0.898458,0.932599
1.1,0.0143164,0.0169913,0.0620083,0.161835,0.283545,0.387205,0.47559399999999996,0.553745,0.623942,0.688247,0.7473609999999999,0.802175,0.853027,0.900286,0.944212,0.985096,1.0245199999999999
1.2000000000000002,0.015606,0.018332400000000002,0.0635452,0.163917,0.295262,0.410709,0.508823,0.5952839999999999,0.672809,0.743768,0.808925,0.8693569999999999,0.925439,0.9775750000000001,1.02739,1.07254,1.11459
1.3,0.0169002,0.0196714,0.06506959999999999,0.165769,0.304349,0.43201,0.540185,0.6352260000000001,0.720265,0.7979900000000001,0.869379,0.9355500000000001,0.9969759999999999,1.05544,1.1086500000000001,1.15811,1.20423
1.4000000000000001,0.0181919,0.0210071,0.0665882,0.16757799999999998,0.31090399999999996,0.451,0.56967,0.6735260000000001,0.766305,0.85099,0.928725,1.00206,1.06905,1.13123,1.18922,1.24319,1.29352
1.5,0.0194846,0.022337700000000002,0.0680633,0.169336,0.315327,0.46765100000000004,0.597187,0.710165,0.810896,0.90269,0.986961,1.06626,1.1388500000000001,1.20631,1.2692,1.32775,1.38229
1.6,0.0207722,0.023666,0.0695487,0.171018,0.318266,0.481854,0.622693,0.745123,0.854008,0.953134,1.04544,1.12954,1.2078,1.2806199999999999,1.34849,1.41171,1.4706299999999999
1.7000000000000002,0.0220629,0.0249915,0.07101829999999999,0.17272500000000002,0.320582,0.49359200000000003,0.64612,0.778285,0.895606,1.0036699999999998,1.10137,1.19168,1.27579,1.3540699999999999,1.427,1.49503,1.55841
1.8,0.0233479,0.0263154,0.07248439999999999,0.174371,0.322678,0.502788,0.6674209999999999,0.8096629999999999,0.935643,1.0513899999999998,1.15603,1.2527599999999999,1.34279,1.4266400000000001,1.5047599999999999,1.5777,1.64562
1.9000000000000001,0.0246291,0.0276361,0.0739297,0.17602399999999999,0.32464899999999997,0.509607,0.6864739999999999,0.839215,0.974108,1.09774,1.20952,1.3127799999999998,1.4088399999999999,1.49831,1.5817400000000001,1.65964,1.73225
2.0,0.025910799999999998,0.028953,0.07537060000000001,0.177624,0.32655100000000004,0.5143460000000001,0.703231,0.866822,1.0124000000000002,1.14265,1.26166,1.37161,1.47387,1.56914,1.65798,1.74092,1.81829
2.1,0.027178900000000002,0.030251800000000002,0.07679720000000001,0.179211,0.328397,0.517637,0.717546,0.892268,1.04728,1.1857,1.3121299999999998,1.42883,1.5372999999999999,1.6384699999999999,1.73267,1.82081,1.90294
2.2,0.0284572,0.0315641,0.07821829999999999,0.18079399999999998,0.33020299999999997,0.520265,0.729625,0.916002,1.08082,1.22773,1.3618199999999998,1.48549,1.60038,1.70755,1.80738,1.9008,1.98787
2.3000000000000003,0.029724900000000002,0.032867400000000005,0.07963619999999999,0.182356,0.331989,0.522558,0.739277,0.937529,1.11248,1.26812,1.40996,1.54069,1.6621400000000002,1.77539,1.88083,1.9796200000000002,2.0716699999999997
2.4000000000000004,0.0310003,0.0341731,0.08103640000000001,0.18390600000000001,0.33376,0.524769,0.746612,0.9569920000000001,1.1424,1.3070499999999998,1.4568599999999998,1.59483,1.72296,1.8424800000000001,1.95373,2.05793,2.15507
2.5,0.0322687,0.035471800000000005,0.0824409,0.185441,0.335478,0.52686,0.751888,0.9741660000000001,1.17036,1.34418,1.50218,1.64755,1.78247,1.9082400000000002,2.0254000000000003,2.13511,2.23741
2.6,0.0335378,0.036768499999999996,0.0838403,0.186976,0.337186,0.528907,0.755706,0.9891120000000001,1.1965299999999999,1.37991,1.5462,1.6991,1.84096,1.9731599999999998,2.09634,2.21164,2.31919
2.7,0.0347967,0.0380548,0.0852269,0.188481,0.338871,0.530871,0.758675,1.00315,1.22058,1.41374,1.58857,1.7491500000000002,1.89804,2.03674,2.166,2.287,2.3998399999999998
2.8000000000000003,0.0360549,0.039344899999999995,0.08661390000000001,0.18998299999999999,0.340535,0.532792,0.7613,1.01347,1.2426,1.44581,1.6294300000000002,1.79786,1.95393,2.09923,2.2346000000000004,2.36143,2.47973
2.9000000000000004,0.0373159,0.0406345,0.087997,0.191482,0.34219900000000003,0.534699,0.7637339999999999,1.02153,1.2626,1.47622,1.66886,1.8453199999999998,2.00868,2.16081,2.3024299999999998,2.43517,2.55894
3.0,0.0385644,0.041913,0.08937110000000001,0.19296,0.34382599999999996,0.5365650000000001,0.766064,1.02751,1.28034,1.5046899999999999,1.70651,1.8912099999999998,2.06196,2.2209399999999997,2.3689,2.50758,2.6369700000000003
3.1,0.0398185,0.0431958,0.0907419,0.19445099999999998,0.34544699999999995,0.5384059999999999,0.768298,1.03191,1.29599,1.53136,1.74268,1.93576,2.1141300000000003,2.28014,2.4346099999999997,2.57932,2.7143599999999997
3.2,0.0410617,0.044468999999999995,0.0921102,0.19591699999999998,0.347062,0.5402049999999999,0.770462,1.03535,1.30929,1.5560100000000001,1.77702,1.97868,2.16476,2.33788,2.49886,2.64969,2.79054
3.3000000000000003,0.0423099,0.0457369,0.0934704,0.197372,0.348659,0.5420069999999999,0.772595,1.03834,1.32033,1.57871,1.80974,2.02015,2.21412,2.39449,2.56217,2.7192499999999997,2.86586
3.4000000000000004,0.0435478,0.0470014,0.0948254,0.198833,0.35024999999999995,0.543766,0.774654,1.0410300000000001,1.32914,1.59926,1.8406099999999999,2.05998,2.26194,2.44966,2.62412,2.78754,2.93998
3.5,0.044786900000000004,0.048272300000000004,0.0961772,0.200288,0.351829,0.545528,0.77669,1.04364,1.33585,1.6178,1.86974,2.09838,2.30858,2.5037499999999997,2.68512,2.85491,3.01341
3.6,0.0460163,0.0495355,0.09752279999999999,0.20172199999999998,0.35339,0.547268,0.778675,1.04606,1.3409,1.6341299999999999,1.89695,2.1349199999999997,2.35348,2.5562699999999996,2.74461,2.92087,3.08542
3.7,0.047253399999999994,0.050797600000000005,0.09886829999999999,0.203166,0.35495,0.548983,0.780639,1.04846,1.3448900000000001,1.64825,1.9222899999999998,2.1699699999999997,2.39705,2.6076200000000003,2.80306,2.98594,3.15643
3.8000000000000003,0.048479100000000004,0.0520502,0.10021000000000001,0.204592,0.356504,0.550693,0.782572,1.05076,1.34825,1.6600899999999998,1.94556,2.20315,2.43899,2.65739,2.8600499999999998,3.04962,3.22647
3.9000000000000004,0.0497125,0.0533082,0.10155,0.206028,0.358053,0.5523859999999999,0.784485,1.05302,1.35127,1.66974,1.9668799999999997,2.2347,2.47949,2.7058999999999997,2.9159300000000004,3.11233,3.29554
4.0,0.0509322,0.0545541,0.10287400000000001,0.20745,0.35958399999999996,0.5540579999999999,0.786357,1.0552300000000001,1.35413,1.67727,1.98607,2.2643199999999997,2.5182300000000004,2.75284,2.97029,3.17361,3.36321
4.1000000000000005,0.0521497,0.055799800000000004,0.104207,0.208872,0.361124,0.555722,0.788215,1.0574,1.35688,1.6831,2.00319,2.29218,2.55548,2.79846,3.0234799999999997,3.23382,3.42999
4.2,0.0533697,0.057042300000000004,0.105528,0.210281,0.362651,0.557377,0.7900659999999999,1.05952,1.3595,1.68764,2.01803,2.31808,2.59093,2.84245,3.07516,3.2925799999999996,3.49539
4.3,0.0545781,0.058285000000000003,0.106847,0.211691,0.364155,0.559031,0.791891,1.06161,1.36199,1.69149,2.0307,2.3420300000000003,2.6246799999999997,2.8848900000000004,3.12541,3.35003,3.5595499999999998
4.4,0.0557961,0.0595266,0.10817199999999999,0.21311,0.365678,0.560665,0.793698,1.0636700000000001,1.3645,1.69491,2.0412500000000002,2.36409,2.6568300000000002,2.9259,3.17442,3.4064099999999997,3.62273
4.5,0.057000499999999996,0.0607588,0.109485,0.214515,0.367182,0.562307,0.795491,1.06573,1.36688,1.69806,2.04967,2.38399,2.68703,2.9652,3.2218400000000003,3.46126,3.68445
4.6000000000000005,0.058208300000000004,0.0619869,0.110801,0.215922,0.368703,0.563942,0.797274,1.06773,1.3692199999999999,1.70109,2.05629,2.4018300000000004,2.7155,3.00296,3.2678999999999996,3.5148800000000002,3.74507
4.7,0.059409,0.0632163,0.112115,0.217316,0.37020800000000004,0.56555,0.7990389999999999,1.06972,1.37148,1.70396,2.06143,2.41753,2.74202,3.0389700000000004,3.31239,3.5669999999999997,3.8043199999999997
4.800000000000001,0.0606082,0.06444749999999999,0.113427,0.21872999999999998,0.371726,0.567179,0.800803,1.0716700000000001,1.3738000000000001,1.70668,2.06576,2.43107,2.76673,3.0734500000000002,3.35547,3.6179300000000003,3.86244
4.9,0.06179899999999999,0.0656686,0.114725,0.22012600000000002,0.373224,0.568789,0.802553,1.07356,1.3760000000000001,1.7093399999999999,2.06958,2.4424099999999997,2.78943,3.10602,3.3968000000000003,3.66718,3.9190099999999997
5.0,0.062994,0.0668929,0.116034,0.221527,0.374724,0.570393,0.804294,1.0754899999999998,1.37819,1.71195,2.07308,2.4516999999999998,2.81015,3.13694,3.4367400000000004,3.7152499999999997,3.97441
5.1000000000000005,0.06418499999999999,0.0681031,0.117329,0.222927,0.37624,0.572013,0.806008,1.07742,1.38032,1.7145000000000001,2.0763499999999997,2.45909,2.8287,3.16595,3.47488,3.7616300000000003,4.02834
5.2,0.06537810000000001,0.069317,0.118631,0.22434700000000002,0.377759,0.573642,0.807743,1.07928,1.38243,1.71698,2.07946,2.46501,2.84523,3.19318,3.51153,3.80667,4.08105
5.300000000000001,0.06656490000000001,0.0705302,0.11992799999999999,0.22575,0.37927099999999997,0.57526,0.809462,1.0811499999999998,1.3845299999999998,1.71938,2.08247,2.46983,2.85956,3.21846,3.54639,3.85004,4.13215
5.4,0.0677441,0.07174080000000001,0.121224,0.227148,0.380797,0.576884,0.811198,1.08303,1.3866,1.72178,2.08536,2.47404,2.8717799999999998,3.2419100000000003,3.57967,3.8920399999999997,4.18203
5.5,0.06892920000000001,0.07293659999999999,0.122524,0.22855999999999999,0.38233100000000003,0.5785159999999999,0.8129310000000001,1.0849,1.38868,1.7241,2.08819,2.47795,2.8818300000000003,3.2632999999999996,3.6110700000000002,3.9322999999999997,4.23031
5.6000000000000005,0.07009689999999999,0.074134,0.12381299999999999,0.229969,0.383869,0.5801769999999999,0.814665,1.08674,1.3906999999999998,1.72638,2.0908900000000004,2.48154,2.89003,3.2825599999999997,3.64065,3.97094,4.277150000000001
5.7,0.07126930000000001,0.0753361,0.125108,0.231389,0.385414,0.581824,0.816419,1.08858,1.3927200000000002,1.7286599999999999,2.09354,2.4849300000000003,2.8967,3.29992,3.66855,4.00814,4.32266
5.800000000000001,0.072432,0.07653570000000001,0.1264,0.232821,0.386981,0.5834870000000001,0.8181780000000001,1.09042,1.3947,1.7308899999999998,2.09611,2.48817,2.90214,3.31506,3.6944399999999997,4.043480000000001,4.36647
5.9,0.0736023,0.0777373,0.12769,0.234255,0.38854900000000003,0.58518,0.819926,1.09227,1.3966,1.73309,2.0986999999999996,2.49121,2.90684,3.32811,3.7185,4.07723,4.408869999999999
6.0,0.0747661,0.0789271,0.12898,0.235678,0.390138,0.5868890000000001,0.8217190000000001,1.09416,1.39857,1.7352299999999998,2.1011699999999998,2.49424,2.9110300000000002,3.3390400000000002,3.74049,4.10915,4.44959
6.1000000000000005,0.0759381,0.08011950000000001,0.13028599999999999,0.237114,0.391729,0.588622,0.823545,1.09604,1.40058,1.73739,2.1036599999999996,2.4971799999999997,2.9149499999999997,3.34812,3.7605999999999997,4.1394400000000005,4.4888200000000005
6.2,0.0770879,0.0813049,0.131571,0.238559,0.393344,0.590377,0.8253699999999999,1.0978999999999999,1.4025299999999998,1.7395,2.1060800000000004,2.50002,2.9186300000000003,3.35548,3.7785599999999997,4.16779,4.5263100000000005
6.300000000000001,0.0782452,0.08249000000000001,0.13286,0.240008,0.39498700000000003,0.59216,0.827256,1.09982,1.40453,1.74165,2.10844,2.5027999999999997,2.92204,3.3615500000000003,3.79454,4.1943600000000005,4.56223
6.4,0.0794039,0.0836694,0.134154,0.24146700000000001,0.396615,0.5939800000000001,0.8291559999999999,1.10175,1.40651,1.7437799999999999,2.11078,2.50549,2.92536,3.36667,3.80832,4.21896,4.5964100000000006
6.5,0.08055659999999999,0.0848516,0.135442,0.24293399999999998,0.39829600000000004,0.59583,0.831095,1.10372,1.40854,1.74591,2.11312,2.5081499999999997,2.92855,3.3712899999999997,3.8201300000000002,4.24172,4.62894
6.6000000000000005,0.08170580000000001,0.08602449999999999,0.136732,0.244402,0.399985,0.597695,0.833079,1.10573,1.41058,1.7479900000000002,2.11538,2.51074,2.93166,3.37548,3.8298799999999997,4.26239,4.65959
6.7,0.08285269999999999,0.08720330000000001,0.138031,0.245885,0.401673,0.599622,0.8351190000000001,1.10778,1.41262,1.7501,2.11766,2.51337,2.9346799999999997,3.37945,3.83791,4.28115,4.6885900000000005
6.800000000000001,0.0839937,0.0883748,0.13931300000000002,0.247363,0.40340200000000004,0.601563,0.8372050000000001,1.10992,1.41469,1.7522,2.11988,2.51585,2.93764,3.38316,3.8445799999999997,4.2978,4.71562
6.9,0.085131,0.0895378,0.140615,0.248867,0.405167,0.603572,0.8393769999999999,1.11209,1.41687,1.75433,2.12211,2.5183,2.9405,3.3867200000000004,3.85028,4.3123700000000005,4.74091
7.0,0.0862686,0.0907021,0.141903,0.250375,0.40694,0.605615,0.841586,1.1143100000000001,1.41902,1.7564600000000001,2.12432,2.52073,2.94328,3.3901600000000003,3.8552999999999997,4.32489,4.76414
7.1000000000000005,0.0874003,0.0918596,0.143188,0.251893,0.40874,0.607703,0.843839,1.11663,1.42128,1.75863,2.1265099999999997,2.52314,2.94604,3.39343,3.8598600000000003,4.33545,4.78549
7.2,0.08853870000000001,0.0930257,0.144478,0.25340999999999997,0.410558,0.6098469999999999,0.8462,1.11903,1.4236,1.76088,2.12874,2.52556,2.94874,3.3966600000000002,3.86407,4.34426,4.80489
7.300000000000001,0.0896623,0.0941909,0.14578400000000002,0.25492899999999996,0.41241,0.612031,0.848609,1.12151,1.42597,1.7631700000000001,2.13098,2.52784,2.95139,3.39973,3.86807,4.35156,4.82215
7.4,0.09078850000000001,0.0953449,0.147073,0.256473,0.41429200000000005,0.614263,0.8511080000000001,1.1240700000000001,1.4284700000000001,1.76549,2.13327,2.5302100000000003,2.95399,3.40277,3.87188,4.35783,4.83744
7.5,0.0919126,0.09650800000000001,0.14836100000000002,0.258038,0.416178,0.616551,0.853668,1.12674,1.43107,1.76787,2.1356,2.53257,2.95655,3.40569,3.87545,4.3632599999999995,4.85067
7.6000000000000005,0.093028,0.0976584,0.14965799999999999,0.25960300000000003,0.418114,0.618888,0.856323,1.1295199999999999,1.4335699999999998,1.7704000000000002,2.1379099999999998,2.53493,2.9590699999999996,3.40862,3.87897,4.36817,4.86202
7.7,0.09415,0.0988195,0.150962,0.26116300000000003,0.420053,0.621256,0.8590540000000001,1.13244,1.43643,1.7729899999999998,2.14031,2.53726,2.96159,3.41144,3.8823299999999996,4.3727100000000005,4.87149
7.800000000000001,0.0952714,0.0999558,0.152263,0.262733,0.422031,0.623684,0.861876,1.13544,1.43947,1.77572,2.14278,2.53966,2.96406,3.4142,3.88559,4.3769100000000005,4.87944
7.9,0.09639199999999999,0.10109,0.153558,0.264318,0.424017,0.6261479999999999,0.864764,1.1386,1.44255,1.77856,2.1453599999999997,2.54204,2.96652,3.41694,3.88876,4.380979999999999,4.88621
8.0,0.0975096,0.10223399999999999,0.15484799999999999,0.26591899999999996,0.426028,0.628683,0.867768,1.14187,1.44582,1.7815800000000002,2.14797,2.54446,2.96901,3.41964,3.8918500000000003,4.38476,4.89207
